theta_deg,counts
0.15,34920
0.45,95868
0.75,132990
1.05,142288
1.35,129608
1.65,105635
1.95,78539
2.25,56068
2.55,39821
2.85,28433
3.15,20432
3.45,15628
3.75,12338
4.05,9731
4.35,8122
4.65,6669
4.95,5764
5.25,4877
5.55,4449
5.85,3829
6.15,3474
6.45,2984
6.75,2846
7.05,2571
7.35,2214
7.65,2068
7.95,1846
8.25,1725
8.55,1605
8.85,1379
9.15,1356
9.45,1204
9.75,1223
10.05,1226
10.35,1094
10.65,980
10.95,886
11.25,888
11.55,845
11.85,741
12.15,804
12.45,730
12.75,682
13.05,615
13.35,628
13.65,589
13.95,537
14.25,567
14.55,473
14.85,521
15.15,464
15.45,406
15.75,467
16.05,418
16.35,375
16.65,377
16.95,368
17.25,374
17.55,345
17.85,338
18.15,352
18.45,301
18.75,314
19.05,275
19.35,288
19.65,257
19.95,294
20.25,256
20.55,264
20.85,237
21.15,238
21.45,220
21.75,215
22.05,220
22.35,192
22.65,212
22.95,196
23.25,164
23.55,184
23.85,186
24.15,173
24.45,173
24.75,166
25.05,140
25.35,149
25.65,144
25.95,148
26.25,147
26.55,157
26.85,113
27.15,120
27.45,127
27.75,122
28.05,124
28.35,114
28.65,105
28.95,112
29.25,128
29.55,120
29.85,103
30.15,121
30.45,92
30.75,87
31.05,106
31.35,91
31.65,104
31.95,80
32.25,82
32.55,91
32.85,71
33.15,89
33.45,100
33.75,101
34.05,86
34.35,85
34.65,71
34.95,72
35.25,66
35.55,68
35.85,90
36.15,66
36.45,77
36.75,57
37.05,67
37.35,62
37.65,67
37.95,59
38.25,61
38.55,51
38.85,53
39.15,63
39.45,66
39.75,57
40.05,64
40.35,50
40.65,48
40.95,41
41.25,42
41.55,41
41.85,41
42.15,55
42.45,42
42.75,49
43.05,45
43.35,38
43.65,48
43.95,36
44.25,38
44.55,39
44.85,39
45.15,30
45.45,30
45.75,51
46.05,40
46.35,27
46.65,38
46.95,41
47.25,37
47.55,39
47.85,35
48.15,39
48.45,37
48.75,34
49.05,30
49.35,23
49.65,29
49.95,26
50.25,27
50.55,27
50.85,28
51.15,34
51.45,29
51.75,21
52.05,17
52.35,28
52.65,26
52.95,35
53.25,26
53.55,16
53.85,18
54.15,26
54.45,38
54.75,31
55.05,31
55.35,22
55.65,26
55.95,29
56.25,24
56.55,24
56.85,24
57.15,24
57.45,22
57.75,22
58.05,14
58.35,13
58.65,19
58.95,24
59.25,21
59.55,15
59.85,26
