theta_deg,counts
0.15,27096
0.45,75297
0.75,108739
1.05,121797
1.35,119303
1.65,104320
1.95,84179
2.25,64947
2.55,48353
2.85,36077
3.15,27002
3.45,20634
3.75,16239
4.05,12979
4.35,10797
4.65,9044
4.95,7691
5.25,6543
5.55,5828
5.85,5202
6.15,4568
6.45,4087
6.75,3719
7.05,3329
7.35,2913
7.65,2815
7.95,2592
8.25,2354
8.55,2223
8.85,1952
9.15,1912
9.45,1791
9.75,1703
10.05,1556
10.35,1442
10.65,1322
10.95,1212
11.25,1209
11.55,1146
11.85,1057
12.15,977
12.45,985
12.75,927
13.05,804
13.35,831
13.65,800
13.95,775
14.25,705
14.55,663
14.85,657
15.15,612
15.45,609
15.75,622
16.05,551
16.35,535
16.65,464
16.95,507
17.25,494
17.55,504
17.85,427
18.15,419
18.45,437
18.75,406
19.05,384
19.35,389
19.65,405
19.95,379
20.25,337
20.55,367
20.85,305
21.15,309
21.45,345
21.75,293
22.05,275
22.35,284
22.65,266
22.95,260
23.25,243
23.55,217
23.85,230
24.15,260
24.45,256
24.75,210
25.05,204
25.35,223
25.65,219
25.95,210
26.25,204
26.55,189
26.85,197
27.15,186
27.45,196
27.75,177
28.05,174
28.35,142
28.65,169
28.95,151
29.25,140
29.55,155
29.85,151
30.15,131
30.45,143
30.75,151
31.05,124
31.35,143
31.65,123
31.95,138
32.25,133
32.55,129
32.85,124
33.15,122
33.45,114
33.75,103
34.05,91
34.35,96
34.65,105
34.95,108
35.25,104
35.55,91
35.85,98
36.15,84
36.45,83
36.75,84
37.05,90
37.35,96
37.65,77
37.95,87
38.25,96
38.55,86
38.85,91
39.15,84
39.45,86
39.75,72
40.05,62
40.35,71
40.65,65
40.95,72
41.25,73
41.55,63
41.85,72
42.15,64
42.45,85
42.75,71
43.05,62
43.35,53
43.65,59
43.95,51
44.25,51
44.55,51
44.85,43
45.15,62
45.45,47
45.75,50
46.05,51
46.35,41
46.65,49
46.95,52
47.25,42
47.55,51
47.85,35
48.15,48
48.45,65
48.75,38
49.05,47
49.35,58
49.65,44
49.95,38
50.25,47
50.55,44
50.85,39
51.15,40
51.45,32
51.75,38
52.05,45
52.35,37
52.65,54
52.95,38
53.25,31
53.55,34
53.85,35
54.15,33
54.45,37
54.75,30
55.05,46
55.35,44
55.65,28
55.95,38
56.25,27
56.55,23
56.85,35
57.15,19
57.45,25
57.75,22
58.05,23
58.35,22
58.65,30
58.95,19
59.25,24
59.55,24
59.85,29
