theta_deg,counts
0.15,27989
0.45,77683
0.75,111198
1.05,124224
1.35,120361
1.65,104458
1.95,84259
2.25,64216
2.55,47461
2.85,34986
3.15,26307
3.45,20052
3.75,15740
4.05,12671
4.35,10326
4.65,8756
4.95,7383
5.25,6385
5.55,5608
5.85,5045
6.15,4441
6.45,3944
6.75,3528
7.05,3255
7.35,2964
7.65,2662
7.95,2375
8.25,2309
8.55,2145
8.85,2048
9.15,1879
9.45,1617
9.75,1586
10.05,1460
10.35,1331
10.65,1305
10.95,1218
11.25,1166
11.55,1141
11.85,1069
12.15,938
12.45,905
12.75,858
13.05,826
13.35,777
13.65,797
13.95,708
14.25,691
14.55,628
14.85,650
15.15,550
15.45,602
15.75,569
16.05,535
16.35,534
16.65,529
16.95,525
17.25,489
17.55,492
17.85,451
18.15,420
18.45,368
18.75,385
19.05,399
19.35,360
19.65,372
19.95,370
20.25,343
20.55,321
20.85,344
21.15,323
21.45,285
21.75,272
22.05,292
22.35,268
22.65,257
22.95,230
23.25,257
23.55,223
23.85,228
24.15,211
24.45,199
24.75,204
25.05,206
25.35,197
25.65,190
25.95,206
26.25,186
26.55,178
26.85,182
27.15,180
27.45,154
27.75,181
28.05,161
28.35,150
28.65,155
28.95,149
29.25,145
29.55,144
29.85,156
30.15,134
30.45,145
30.75,135
31.05,134
31.35,131
31.65,134
31.95,117
32.25,104
32.55,101
32.85,104
33.15,120
33.45,117
33.75,121
34.05,93
34.35,110
34.65,99
34.95,95
35.25,89
35.55,94
35.85,104
36.15,82
36.45,93
36.75,85
37.05,75
37.35,86
37.65,80
37.95,72
38.25,62
38.55,93
38.85,75
39.15,82
39.45,63
39.75,78
40.05,74
40.35,70
40.65,70
40.95,62
41.25,57
41.55,56
41.85,65
42.15,69
42.45,62
42.75,54
43.05,53
43.35,74
43.65,66
43.95,61
44.25,59
44.55,54
44.85,55
45.15,49
45.45,57
45.75,57
46.05,55
46.35,52
46.65,49
46.95,42
47.25,39
47.55,40
47.85,43
48.15,41
48.45,39
48.75,36
49.05,44
49.35,36
49.65,48
49.95,38
50.25,37
50.55,45
50.85,46
51.15,36
51.45,40
51.75,51
52.05,42
52.35,32
52.65,36
52.95,27
53.25,35
53.55,28
53.85,31
54.15,36
54.45,45
54.75,29
55.05,33
55.35,38
55.65,32
55.95,28
56.25,23
56.55,30
56.85,34
57.15,31
57.45,24
57.75,27
58.05,30
58.35,19
58.65,30
58.95,32
59.25,33
59.55,30
59.85,29
