theta_deg,counts
0.15,28885
0.45,80672
0.75,114088
1.05,127571
1.35,122243
1.65,104817
1.95,83542
2.25,63379
2.55,46169
2.85,34016
3.15,25224
3.45,19042
3.75,15195
4.05,12220
4.35,10168
4.65,8339
4.95,7186
5.25,6184
5.55,5342
5.85,4778
6.15,4243
6.45,3830
6.75,3471
7.05,3086
7.35,2849
7.65,2516
7.95,2326
8.25,2186
8.55,1984
8.85,1845
9.15,1636
9.45,1661
9.75,1480
10.05,1418
10.35,1307
10.65,1254
10.95,1210
11.25,1105
11.55,981
11.85,973
12.15,883
12.45,895
12.75,834
13.05,800
13.35,763
13.65,753
13.95,695
14.25,664
14.55,652
14.85,641
15.15,566
15.45,556
15.75,561
16.05,492
16.35,479
16.65,503
16.95,481
17.25,445
17.55,465
17.85,426
18.15,416
18.45,384
18.75,358
19.05,371
19.35,354
19.65,297
19.95,319
20.25,331
20.55,335
20.85,303
21.15,303
21.45,312
21.75,226
22.05,280
22.35,242
22.65,247
22.95,268
23.25,222
23.55,239
23.85,239
24.15,217
24.45,238
24.75,208
25.05,187
25.35,195
25.65,164
25.95,195
26.25,172
26.55,182
26.85,160
27.15,174
27.45,165
27.75,146
28.05,145
28.35,157
28.65,133
28.95,138
29.25,143
29.55,137
29.85,139
30.15,122
30.45,128
30.75,137
31.05,144
31.35,123
31.65,131
31.95,109
32.25,104
32.55,127
32.85,127
33.15,106
33.45,88
33.75,97
34.05,98
34.35,98
34.65,80
34.95,96
35.25,89
35.55,111
35.85,94
36.15,102
36.45,82
36.75,83
37.05,89
37.35,81
37.65,88
37.95,77
38.25,84
38.55,76
38.85,91
39.15,76
39.45,75
39.75,74
40.05,73
40.35,56
40.65,56
40.95,75
41.25,77
41.55,74
41.85,59
42.15,61
42.45,66
42.75,59
43.05,55
43.35,63
43.65,57
43.95,54
44.25,51
44.55,59
44.85,62
45.15,60
45.45,47
45.75,39
46.05,42
46.35,48
46.65,39
46.95,37
47.25,44
47.55,47
47.85,34
48.15,49
48.45,39
48.75,42
49.05,38
49.35,42
49.65,39
49.95,42
50.25,38
50.55,44
50.85,33
51.15,34
51.45,39
51.75,25
52.05,30
52.35,35
52.65,43
52.95,31
53.25,33
53.55,30
53.85,29
54.15,28
54.45,26
54.75,29
55.05,29
55.35,27
55.65,32
55.95,35
56.25,12
56.55,22
56.85,25
57.15,28
57.45,21
57.75,14
58.05,36
58.35,22
58.65,24
58.95,31
59.25,28
59.55,30
59.85,22
