theta_deg,counts
0.15,33479
0.45,92840
0.75,129354
1.05,139548
1.35,128362
1.65,105592
1.95,79765
2.25,57089
2.55,40818
2.85,29265
3.15,21770
3.45,16307
3.75,12714
4.05,10325
4.35,8363
4.65,7085
4.95,6111
5.25,5282
5.55,4436
5.85,3991
6.15,3566
6.45,3204
6.75,2951
7.05,2707
7.35,2449
7.65,2168
7.95,1960
8.25,1818
8.55,1633
8.85,1597
9.15,1420
9.45,1363
9.75,1301
10.05,1180
10.35,1085
10.65,1006
10.95,915
11.25,945
11.55,884
11.85,851
12.15,819
12.45,775
12.75,749
13.05,676
13.35,625
13.65,645
13.95,570
14.25,504
14.55,569
14.85,539
15.15,480
15.45,463
15.75,469
16.05,362
16.35,438
16.65,374
16.95,386
17.25,392
17.55,344
17.85,362
18.15,356
18.45,298
18.75,313
19.05,300
19.35,272
19.65,252
19.95,292
20.25,246
20.55,258
20.85,274
21.15,237
21.45,273
21.75,232
22.05,213
22.35,202
22.65,219
22.95,202
23.25,188
23.55,195
23.85,187
24.15,164
24.45,181
24.75,167
25.05,166
25.35,158
25.65,162
25.95,157
26.25,131
26.55,141
26.85,140
27.15,140
27.45,119
27.75,122
28.05,128
28.35,131
28.65,128
28.95,118
29.25,138
29.55,123
29.85,129
30.15,105
30.45,102
30.75,109
31.05,105
31.35,97
31.65,85
31.95,95
32.25,91
32.55,90
32.85,87
33.15,85
33.45,89
33.75,92
34.05,81
34.35,70
34.65,80
34.95,86
35.25,65
35.55,82
35.85,70
36.15,90
36.45,85
36.75,57
37.05,66
37.35,73
37.65,76
37.95,69
38.25,61
38.55,57
38.85,57
39.15,55
39.45,71
39.75,59
40.05,54
40.35,55
40.65,63
40.95,49
41.25,53
41.55,54
41.85,52
42.15,44
42.45,48
42.75,50
43.05,43
43.35,38
43.65,52
43.95,47
44.25,50
44.55,35
44.85,41
45.15,55
45.45,44
45.75,43
46.05,40
46.35,42
46.65,48
46.95,35
47.25,30
47.55,31
47.85,32
48.15,36
48.45,35
48.75,51
49.05,41
49.35,26
49.65,39
49.95,44
50.25,37
50.55,30
50.85,26
51.15,31
51.45,26
51.75,31
52.05,28
52.35,31
52.65,33
52.95,26
53.25,40
53.55,25
53.85,30
54.15,26
54.45,28
54.75,21
55.05,23
55.35,29
55.65,25
55.95,22
56.25,25
56.55,18
56.85,30
57.15,28
57.45,27
57.75,15
58.05,23
58.35,14
58.65,21
58.95,18
59.25,18
59.55,29
59.85,20
